WIND SPEED (m/s), THRUST (N), TORQUE (NM), PRODUCED POWER (W), C_P
3,54881.9,278720,100206,0.485953
3.22222,63313.7,321541,124165,0.485953
3.44444,72347.8,367420,151666,0.485953
3.66667,81984.1,416359,182956,0.485953
3.88889,92222.7,468356,218277,0.485953
4.11111,103064,523412,257875,0.485953
4.33333,114507,581526,301994,0.485953
4.55556,126552,642699,350877,0.485953
4.77778,139200,706931,404771,0.485953
5,152450,774221,463918,0.485953
5.22222,166302,844570,528564,0.485953
5.44444,180757,917978,598952,0.485953
5.66667,195813,994444,675327,0.485953
5.88889,211472,1.07397e+06,757934,0.485953
6.11111,227734,1.15655e+06,847017,0.485953
6.33333,244597,1.24219e+06,942819,0.485953
6.55556,262063,1.3309e+06,1.04559e+06,0.485953
6.77778,280131,1.42266e+06,1.15556e+06,0.485953
7,298802,1.51747e+06,1.27299e+06,0.485953
7.22222,318074,1.61535e+06,1.39812e+06,0.485953
7.44444,337949,1.71629e+06,1.53119e+06,0.485953
7.66667,358427,1.82028e+06,1.67244e+06,0.485953
7.88889,379506,1.92733e+06,1.82213e+06,0.485953
8.11111,401188,2.03744e+06,1.98049e+06,0.485953
8.33333,423472,2.15061e+06,2.14777e+06,0.485953
8.55556,446358,2.26684e+06,2.32421e+06,0.485953
8.77778,469847,2.38613e+06,2.51007e+06,0.485953
9,493937,2.50848e+06,2.70557e+06,0.485953
9.22222,518631,2.63388e+06,2.91097e+06,0.485953
9.44444,543926,2.76234e+06,3.12652e+06,0.485953
9.66667,569824,2.89387e+06,3.35244e+06,0.485953
9.88889,596324,3.02845e+06,3.589e+06,0.485953
10.1111,623426,3.16609e+06,3.83644e+06,0.485953
10.3333,651130,3.30678e+06,4.09499e+06,0.485953
10.5556,679437,3.45054e+06,4.3649e+06,0.485953
10.7778,708346,3.59736e+06,4.64643e+06,0.485953
11,737857,3.74723e+06,4.9398e+06,0.485953
11.2222,767971,3.90016e+06,5.24527e+06,0.485953
11.4444,798687,4.05615e+06,5.56308e+06,0.485953
11.6667,830005,4.2152e+06,5.89348e+06,0.485953
11.8889,861925,4.37731e+06,6.2367e+06,0.485953
12.1111,894448,4.54248e+06,6.593e+06,0.485953
12.3333,927573,4.7107e+06,6.96262e+06,0.485953
12.5556,961300,4.88199e+06,7.3458e+06,0.485953
12.7778,995629,5.05633e+06,7.74279e+06,0.485953
13,1.03056e+06,5.23373e+06,8.15383e+06,0.485953
13.2222,1.06609e+06,5.41419e+06,8.57916e+06,0.485953
13.4444,1.10223e+06,5.59771e+06,9.01903e+06,0.485953
13.6667,1.13897e+06,5.78429e+06,9.47369e+06,0.485953
13.8889,1.17631e+06,5.97393e+06,9.94338e+06,0.485953
14.1111,1.21425e+06,6.16662e+06,1.04283e+07,0.485953
14.3333,1.2528e+06,6.36238e+06,1.09288e+07,0.485953
14.5556,1.29195e+06,6.56119e+06,1.14451e+07,0.485953
14.7778,1.3317e+06,6.76306e+06,1.19773e+07,0.485953
15,1.37205e+06,6.96799e+06,1.25258e+07,0.485953
15.2222,1.413e+06,7.17598e+06,1.30908e+07,0.485953
15.4444,1.45456e+06,7.38702e+06,1.36725e+07,0.485953
15.6667,1.49672e+06,7.60113e+06,1.42712e+07,0.485953
15.8889,1.53948e+06,7.81829e+06,1.48872e+07,0.485953
16.1111,1.58284e+06,8.03852e+06,1.55206e+07,0.485953
16.3333,1.62681e+06,8.2618e+06,1.61717e+07,0.485953
16.5556,1.67138e+06,8.48814e+06,1.68408e+07,0.485953
16.7778,1.71655e+06,8.71754e+06,1.75281e+07,0.485953
17,1.76232e+06,8.94999e+06,1.82338e+07,0.485953
17.2222,1.8087e+06,9.18551e+06,1.89583e+07,0.485953
17.4444,1.85567e+06,9.42409e+06,1.97017e+07,0.485953
17.6667,1.90325e+06,9.66572e+06,2.04642e+07,0.485953
17.8889,1.95143e+06,9.91041e+06,2.12462e+07,0.485953
18.1111,2.00022e+06,1.01582e+07,2.20479e+07,0.485953
18.3333,2.0496e+06,1.0409e+07,2.28694e+07,0.485953
18.5556,2.09959e+06,1.06628e+07,2.37112e+07,0.485953
18.7778,2.15018e+06,1.09198e+07,2.45733e+07,0.485953
19,2.20138e+06,1.11798e+07,2.54561e+07,0.485953
19.2222,2.25317e+06,1.14428e+07,2.63598e+07,0.485953
19.4444,2.30557e+06,1.17089e+07,2.72846e+07,0.485953
19.6667,2.35857e+06,1.19781e+07,2.82308e+07,0.485953
19.8889,2.41217e+06,1.22503e+07,2.91987e+07,0.485953
20.1111,2.46637e+06,1.25256e+07,3.01884e+07,0.485953
20.3333,2.52118e+06,1.28039e+07,3.12002e+07,0.485953
20.5556,2.57659e+06,1.30853e+07,3.22344e+07,0.485953
20.7778,2.6326e+06,1.33697e+07,3.32911e+07,0.485953
21,2.68922e+06,1.36573e+07,3.43708e+07,0.485953
21.2222,2.74643e+06,1.39478e+07,3.54735e+07,0.485953
21.4444,2.80425e+06,1.42415e+07,3.65996e+07,0.485953
21.6667,2.86267e+06,1.45382e+07,3.77492e+07,0.485953
21.8889,2.92169e+06,1.48379e+07,3.89227e+07,0.485953
22.1111,2.98132e+06,1.51407e+07,4.01202e+07,0.485953
22.3333,3.04154e+06,1.54466e+07,4.1342e+07,0.485953
22.5556,3.10237e+06,1.57555e+07,4.25885e+07,0.485953
22.7778,3.1638e+06,1.60675e+07,4.38597e+07,0.485953
23,3.22584e+06,1.63825e+07,4.51559e+07,0.485953
23.2222,3.28847e+06,1.67006e+07,4.64775e+07,0.485953
23.4444,3.35171e+06,1.70218e+07,4.78246e+07,0.485953
23.6667,3.41555e+06,1.7346e+07,4.91975e+07,0.485953
23.8889,3.48e+06,1.76733e+07,5.05964e+07,0.485953
24.1111,3.54504e+06,1.80036e+07,5.20215e+07,0.485953
24.3333,3.61069e+06,1.8337e+07,5.34732e+07,0.485953
24.5556,3.67694e+06,1.86734e+07,5.49516e+07,0.485953
24.7778,3.74379e+06,1.9013e+07,5.64571e+07,0.485953
25,3.81125e+06,1.93555e+07,5.79898e+07,0.485953
